127
0 ILE 1 THR
0 ILE 2 ILE
0 ILE 3 LYS
0 ILE 38 LEU
0 ILE 39 ALA
0 ILE 40 LEU
0 ILE 41 ASP
0 ILE 42 GLY
0 ILE 43 ASP
0 ILE 44 ALA
0 ILE 45 VAL
0 ILE 46 VAL
0 ILE 47 GLY
0 ILE 73 GLN
0 ILE 74 GLY
0 ILE 75 ILE
0 ILE 78 SER
1 THR 2 ILE
1 THR 3 LYS
1 THR 4 LYS
1 THR 37 TYR
1 THR 38 LEU
1 THR 39 ALA
1 THR 40 LEU
1 THR 41 ASP
1 THR 42 GLY
1 THR 43 ASP
1 THR 44 ALA
1 THR 45 VAL
1 THR 46 VAL
1 THR 47 GLY
1 THR 75 ILE
1 THR 78 SER
1 THR 79 LEU
2 ILE 3 LYS
2 ILE 4 LYS
2 ILE 5 GLN
2 ILE 37 TYR
2 ILE 38 LEU
2 ILE 39 ALA
2 ILE 40 LEU
2 ILE 41 ASP
2 ILE 47 GLY
2 ILE 48 LEU
2 ILE 75 ILE
2 ILE 78 SER
2 ILE 79 LEU
2 ILE 81 GLU
2 ILE 82 ALA
3 LYS 4 LYS
3 LYS 5 GLN
3 LYS 6 GLU
3 LYS 36 ILE
3 LYS 37 TYR
3 LYS 38 LEU
3 LYS 39 ALA
3 LYS 40 LEU
3 LYS 48 LEU
3 LYS 79 LEU
3 LYS 81 GLU
3 LYS 82 ALA
4 LYS 5 GLN
4 LYS 6 GLU
4 LYS 7 ILE
4 LYS 35 VAL
4 LYS 36 ILE
4 LYS 37 TYR
4 LYS 38 LEU
4 LYS 39 ALA
4 LYS 48 LEU
4 LYS 49 ILE
4 LYS 79 LEU
4 LYS 81 GLU
4 LYS 82 ALA
5 GLN 6 GLU
5 GLN 7 ILE
5 GLN 8 VAL
5 GLN 35 VAL
5 GLN 36 ILE
5 GLN 37 TYR
5 GLN 38 LEU
5 GLN 48 LEU
6 GLU 7 ILE
6 GLU 8 VAL
6 GLU 9 LYS
6 GLU 30 LEU
6 GLU 31 SER
6 GLU 33 SER
6 GLU 34 LEU
6 GLU 35 VAL
6 GLU 36 ILE
6 GLU 37 TYR
7 ILE 8 VAL
7 ILE 9 LYS
7 ILE 10 LEU
7 ILE 30 LEU
7 ILE 31 SER
7 ILE 35 VAL
7 ILE 36 ILE
8 VAL 9 LYS
8 VAL 10 LEU
8 VAL 11 GLU
8 VAL 12 ASP
8 VAL 13 VAL
8 VAL 27 GLU
8 VAL 30 LEU
8 VAL 31 SER
8 VAL 36 ILE
8 VAL 37 TYR
8 VAL 38 LEU
9 LYS 10 LEU
9 LYS 11 GLU
9 LYS 12 ASP
9 LYS 13 VAL
9 LYS 14 LEU
9 LYS 26 LEU
9 LYS 27 GLU
9 LYS 28 GLN
9 LYS 30 LEU
9 LYS 31 SER
10 LEU 11 GLU
10 LEU 12 ASP
10 LEU 13 VAL
10 LEU 14 LEU
10 LEU 15 HIS
10 LEU 16 LEU
10 LEU 17 TYR
10 LEU 25 GLU
10 LEU 26 LEU
10 LEU 27 GLU
10 LEU 28 GLN
10 LEU 29 ALA
10 LEU 30 LEU
10 LEU 31 SER
11 GLU 12 ASP
11 GLU 13 VAL
11 GLU 14 LEU
11 GLU 15 HIS
11 GLU 16 LEU
11 GLU 27 GLU
12 ASP 13 VAL
12 ASP 14 LEU
12 ASP 15 HIS
12 ASP 16 LEU
12 ASP 44 ALA
12 ASP 45 VAL
13 VAL 14 LEU
13 VAL 15 HIS
13 VAL 16 LEU
13 VAL 17 TYR
13 VAL 18 GLN
13 VAL 38 LEU
13 VAL 45 VAL
13 VAL 46 VAL
13 VAL 47 GLY
13 VAL 48 LEU
14 LEU 15 HIS
14 LEU 16 LEU
14 LEU 17 TYR
14 LEU 18 GLN
14 LEU 19 ALA
14 LEU 21 GLY
14 LEU 22 TRP
14 LEU 26 LEU
14 LEU 27 GLU
15 HIS 16 LEU
15 HIS 17 TYR
15 HIS 18 GLN
15 HIS 19 ALA
15 HIS 20 VAL
15 HIS 21 GLY
15 HIS 45 VAL
15 HIS 46 VAL
15 HIS 47 GLY
15 HIS 67 LEU
16 LEU 17 TYR
16 LEU 18 GLN
16 LEU 19 ALA
16 LEU 20 VAL
16 LEU 21 GLY
16 LEU 22 TRP
16 LEU 45 VAL
16 LEU 46 VAL
16 LEU 47 GLY
16 LEU 48 LEU
16 LEU 64 LEU
16 LEU 65 ILE
16 LEU 66 VAL
16 LEU 67 LEU
16 LEU 68 PRO
17 TYR 18 GLN
17 TYR 19 ALA
17 TYR 20 VAL
17 TYR 21 GLY
17 TYR 22 TRP
17 TYR 23 THR
17 TYR 24 ASN
17 TYR 26 LEU
17 TYR 47 GLY
17 TYR 48 LEU
17 TYR 63 ASP
17 TYR 64 LEU
17 TYR 65 ILE
17 TYR 66 VAL
17 TYR 67 LEU
18 GLN 19 ALA
18 GLN 20 VAL
18 GLN 21 GLY
18 GLN 22 TRP
18 GLN 23 THR
18 GLN 67 LEU
19 ALA 20 VAL
19 ALA 21 GLY
19 ALA 22 TRP
19 ALA 65 ILE
19 ALA 66 VAL
19 ALA 67 LEU
19 ALA 68 PRO
19 ALA 69 SER
20 VAL 21 GLY
20 VAL 22 TRP
20 VAL 23 THR
20 VAL 65 ILE
20 VAL 66 VAL
20 VAL 67 LEU
20 VAL 68 PRO
21 GLY 22 TRP
21 GLY 23 THR
21 GLY 24 ASN
22 TRP 23 THR
22 TRP 24 ASN
22 TRP 25 GLU
23 THR 24 ASN
23 THR 25 GLU
23 THR 26 LEU
24 ASN 25 GLU
24 ASN 26 LEU
25 GLU 26 LEU
25 GLU 27 GLU
25 GLU 28 GLN
25 GLU 29 ALA
26 LEU 27 GLU
26 LEU 28 GLN
26 LEU 29 ALA
26 LEU 30 LEU
26 LEU 31 SER
26 LEU 32 HIS
27 GLU 28 GLN
27 GLU 29 ALA
27 GLU 30 LEU
27 GLU 31 SER
27 GLU 32 HIS
28 GLN 29 ALA
28 GLN 30 LEU
28 GLN 31 SER
28 GLN 32 HIS
28 GLN 33 SER
29 ALA 30 LEU
29 ALA 31 SER
29 ALA 32 HIS
29 ALA 33 SER
29 ALA 50 ARG
29 ALA 52 VAL
30 LEU 31 SER
30 LEU 32 HIS
30 LEU 33 SER
30 LEU 34 LEU
30 LEU 35 VAL
30 LEU 36 ILE
30 LEU 50 ARG
30 LEU 51 LEU
30 LEU 52 VAL
31 SER 32 HIS
31 SER 33 SER
31 SER 34 LEU
31 SER 35 VAL
31 SER 36 ILE
32 HIS 33 SER
32 HIS 34 LEU
32 HIS 35 VAL
32 HIS 51 LEU
32 HIS 52 VAL
32 HIS 53 GLY
33 SER 34 LEU
33 SER 35 VAL
33 SER 36 ILE
33 SER 50 ARG
33 SER 51 LEU
33 SER 52 VAL
33 SER 53 GLY
33 SER 54 ASP
33 SER 55 GLY
33 SER 62 GLN
34 LEU 35 VAL
34 LEU 36 ILE
34 LEU 50 ARG
34 LEU 51 LEU
34 LEU 52 VAL
34 LEU 53 GLY
34 LEU 54 ASP
34 LEU 55 GLY
34 LEU 59 VAL
34 LEU 60 PHE
34 LEU 82 ALA
34 LEU 85 ASN
34 LEU 86 PHE
35 VAL 36 ILE
35 VAL 37 TYR
35 VAL 49 ILE
35 VAL 50 ARG
35 VAL 51 LEU
35 VAL 52 VAL
35 VAL 53 GLY
35 VAL 55 GLY
35 VAL 61 VAL
35 VAL 82 ALA
35 VAL 83 LEU
35 VAL 85 ASN
35 VAL 86 PHE
36 ILE 37 TYR
36 ILE 38 LEU
36 ILE 48 LEU
36 ILE 49 ILE
36 ILE 50 ARG
36 ILE 51 LEU
36 ILE 52 VAL
36 ILE 63 ASP
36 ILE 64 LEU
36 ILE 79 LEU
36 ILE 81 GLU
36 ILE 82 ALA
37 TYR 38 LEU
37 TYR 39 ALA
37 TYR 40 LEU
37 TYR 47 GLY
37 TYR 48 LEU
37 TYR 49 ILE
37 TYR 50 ARG
37 TYR 51 LEU
37 TYR 64 LEU
37 TYR 78 SER
37 TYR 79 LEU
37 TYR 81 GLU
37 TYR 82 ALA
38 LEU 39 ALA
38 LEU 40 LEU
38 LEU 41 ASP
38 LEU 44 ALA
38 LEU 45 VAL
38 LEU 46 VAL
38 LEU 47 GLY
38 LEU 48 LEU
38 LEU 49 ILE
38 LEU 50 ARG
38 LEU 64 LEU
38 LEU 65 ILE
38 LEU 66 VAL
38 LEU 75 ILE
38 LEU 79 LEU
38 LEU 82 ALA
39 ALA 40 LEU
39 ALA 41 ASP
39 ALA 42 GLY
39 ALA 43 ASP
39 ALA 44 ALA
39 ALA 45 VAL
39 ALA 46 VAL
39 ALA 47 GLY
39 ALA 48 LEU
39 ALA 49 ILE
39 ALA 65 ILE
39 ALA 66 VAL
39 ALA 67 LEU
39 ALA 75 ILE
39 ALA 76 GLY
39 ALA 78 SER
39 ALA 79 LEU
40 LEU 41 ASP
40 LEU 42 GLY
40 LEU 43 ASP
40 LEU 44 ALA
40 LEU 45 VAL
40 LEU 46 VAL
40 LEU 47 GLY
40 LEU 48 LEU
40 LEU 75 ILE
41 ASP 42 GLY
41 ASP 43 ASP
41 ASP 44 ALA
41 ASP 45 VAL
41 ASP 46 VAL
41 ASP 47 GLY
41 ASP 70 TYR
42 GLY 43 ASP
42 GLY 44 ALA
42 GLY 45 VAL
42 GLY 46 VAL
43 ASP 44 ALA
43 ASP 45 VAL
43 ASP 46 VAL
44 ALA 45 VAL
44 ALA 46 VAL
44 ALA 47 GLY
45 VAL 46 VAL
45 VAL 47 GLY
45 VAL 48 LEU
45 VAL 66 VAL
45 VAL 67 LEU
46 VAL 47 GLY
46 VAL 48 LEU
46 VAL 65 ILE
46 VAL 66 VAL
46 VAL 67 LEU
46 VAL 68 PRO
46 VAL 69 SER
46 VAL 70 TYR
46 VAL 71 GLN
46 VAL 75 ILE
47 GLY 48 LEU
47 GLY 49 ILE
47 GLY 63 ASP
47 GLY 64 LEU
47 GLY 65 ILE
47 GLY 66 VAL
47 GLY 67 LEU
47 GLY 68 PRO
47 GLY 70 TYR
47 GLY 71 GLN
47 GLY 75 ILE
47 GLY 76 GLY
47 GLY 79 LEU
48 LEU 49 ILE
48 LEU 50 ARG
48 LEU 63 ASP
48 LEU 64 LEU
48 LEU 65 ILE
48 LEU 66 VAL
48 LEU 67 LEU
48 LEU 75 ILE
48 LEU 76 GLY
48 LEU 79 LEU
49 ILE 50 ARG
49 ILE 51 LEU
49 ILE 61 VAL
49 ILE 62 GLN
49 ILE 63 ASP
49 ILE 64 LEU
49 ILE 65 ILE
49 ILE 66 VAL
49 ILE 76 GLY
49 ILE 78 SER
49 ILE 79 LEU
49 ILE 81 GLU
49 ILE 82 ALA
49 ILE 83 LEU
50 ARG 51 LEU
50 ARG 52 VAL
50 ARG 60 PHE
50 ARG 61 VAL
50 ARG 62 GLN
50 ARG 63 ASP
50 ARG 64 LEU
50 ARG 65 ILE
50 ARG 79 LEU
50 ARG 82 ALA
51 LEU 52 VAL
51 LEU 53 GLY
51 LEU 54 ASP
51 LEU 55 GLY
51 LEU 59 VAL
51 LEU 60 PHE
51 LEU 61 VAL
51 LEU 62 GLN
51 LEU 63 ASP
51 LEU 64 LEU
51 LEU 82 ALA
51 LEU 83 LEU
51 LEU 86 PHE
51 LEU 92 VAL
51 LEU 93 GLN
51 LEU 94 LEU
52 VAL 53 GLY
52 VAL 54 ASP
52 VAL 55 GLY
52 VAL 58 SER
52 VAL 59 VAL
52 VAL 60 PHE
52 VAL 61 VAL
52 VAL 62 GLN
52 VAL 63 ASP
53 GLY 54 ASP
53 GLY 55 GLY
53 GLY 56 PHE
53 GLY 57 SER
53 GLY 58 SER
53 GLY 59 VAL
53 GLY 60 PHE
53 GLY 61 VAL
53 GLY 62 GLN
53 GLY 92 VAL
53 GLY 93 GLN
54 ASP 55 GLY
54 ASP 56 PHE
54 ASP 57 SER
54 ASP 58 SER
54 ASP 59 VAL
54 ASP 60 PHE
54 ASP 89 ALA
55 GLY 56 PHE
55 GLY 57 SER
55 GLY 58 SER
55 GLY 59 VAL
55 GLY 60 PHE
55 GLY 85 ASN
55 GLY 86 PHE
55 GLY 88 GLU
55 GLY 89 ALA
55 GLY 90 TYR
55 GLY 91 GLN
55 GLY 92 VAL
56 PHE 57 SER
56 PHE 58 SER
56 PHE 59 VAL
56 PHE 86 PHE
56 PHE 87 LYS
56 PHE 88 GLU
56 PHE 89 ALA
56 PHE 90 TYR
56 PHE 91 GLN
56 PHE 92 VAL
57 SER 58 SER
57 SER 59 VAL
57 SER 86 PHE
57 SER 88 GLU
57 SER 89 ALA
57 SER 90 TYR
57 SER 91 GLN
57 SER 92 VAL
58 SER 59 VAL
58 SER 60 PHE
58 SER 86 PHE
58 SER 89 ALA
58 SER 90 TYR
58 SER 91 GLN
58 SER 92 VAL
58 SER 93 GLN
59 VAL 60 PHE
59 VAL 61 VAL
59 VAL 62 GLN
59 VAL 83 LEU
59 VAL 86 PHE
59 VAL 89 ALA
59 VAL 90 TYR
59 VAL 91 GLN
59 VAL 92 VAL
59 VAL 93 GLN
59 VAL 94 LEU
60 PHE 61 VAL
60 PHE 62 GLN
60 PHE 63 ASP
60 PHE 83 LEU
60 PHE 91 GLN
60 PHE 92 VAL
60 PHE 93 GLN
60 PHE 94 LEU
60 PHE 95 ALA
61 VAL 62 GLN
61 VAL 63 ASP
61 VAL 64 LEU
61 VAL 82 ALA
61 VAL 83 LEU
61 VAL 92 VAL
61 VAL 93 GLN
61 VAL 94 LEU
61 VAL 95 ALA
61 VAL 96 THR
62 GLN 63 ASP
62 GLN 64 LEU
62 GLN 93 GLN
62 GLN 94 LEU
62 GLN 95 ALA
62 GLN 96 THR
63 ASP 64 LEU
63 ASP 65 ILE
63 ASP 66 VAL
63 ASP 94 LEU
63 ASP 95 ALA
64 LEU 65 ILE
64 LEU 66 VAL
64 LEU 76 GLY
64 LEU 79 LEU
64 LEU 94 LEU
65 ILE 66 VAL
65 ILE 67 LEU
65 ILE 68 PRO
65 ILE 71 GLN
65 ILE 75 ILE
65 ILE 76 GLY
65 ILE 79 LEU
66 VAL 67 LEU
66 VAL 68 PRO
66 VAL 69 SER
66 VAL 70 TYR
66 VAL 71 GLN
66 VAL 72 ARG
66 VAL 75 ILE
66 VAL 76 GLY
66 VAL 79 LEU
67 LEU 68 PRO
67 LEU 69 SER
67 LEU 70 TYR
67 LEU 71 GLN
67 LEU 75 ILE
68 PRO 69 SER
68 PRO 70 TYR
68 PRO 71 GLN
68 PRO 72 ARG
69 SER 70 TYR
69 SER 71 GLN
69 SER 72 ARG
70 TYR 71 GLN
70 TYR 72 ARG
70 TYR 73 GLN
70 TYR 74 GLY
70 TYR 75 ILE
70 TYR 76 GLY
71 GLN 72 ARG
71 GLN 73 GLN
71 GLN 74 GLY
71 GLN 75 ILE
71 GLN 76 GLY
71 GLN 77 SER
72 ARG 73 GLN
72 ARG 74 GLY
72 ARG 75 ILE
72 ARG 76 GLY
72 ARG 77 SER
72 ARG 105 PHE
73 GLN 74 GLY
73 GLN 75 ILE
73 GLN 76 GLY
73 GLN 77 SER
73 GLN 78 SER
74 GLY 75 ILE
74 GLY 76 GLY
74 GLY 77 SER
74 GLY 78 SER
74 GLY 79 LEU
75 ILE 76 GLY
75 ILE 77 SER
75 ILE 78 SER
75 ILE 79 LEU
75 ILE 80 LYS
76 GLY 77 SER
76 GLY 78 SER
76 GLY 79 LEU
76 GLY 80 LYS
76 GLY 105 PHE
76 GLY 106 TYR
77 SER 78 SER
77 SER 79 LEU
77 SER 80 LYS
77 SER 81 GLU
77 SER 82 ALA
77 SER 105 PHE
77 SER 106 TYR
77 SER 108 SER
78 SER 79 LEU
78 SER 80 LYS
78 SER 81 GLU
78 SER 82 ALA
79 LEU 80 LYS
79 LEU 81 GLU
79 LEU 82 ALA
79 LEU 83 LEU
79 LEU 84 GLY
80 LYS 81 GLU
80 LYS 82 ALA
80 LYS 83 LEU
80 LYS 84 GLY
80 LYS 85 ASN
81 GLU 82 ALA
81 GLU 83 LEU
81 GLU 84 GLY
81 GLU 85 ASN
81 GLU 86 PHE
82 ALA 83 LEU
82 ALA 84 GLY
82 ALA 85 ASN
82 ALA 86 PHE
82 ALA 87 LYS
83 LEU 84 GLY
83 LEU 85 ASN
83 LEU 86 PHE
83 LEU 87 LYS
83 LEU 88 GLU
83 LEU 89 ALA
83 LEU 92 VAL
84 GLY 85 ASN
84 GLY 86 PHE
84 GLY 87 LYS
84 GLY 88 GLU
85 ASN 86 PHE
85 ASN 87 LYS
85 ASN 88 GLU
85 ASN 89 ALA
86 PHE 87 LYS
86 PHE 88 GLU
86 PHE 89 ALA
86 PHE 90 TYR
86 PHE 91 GLN
86 PHE 92 VAL
87 LYS 88 GLU
87 LYS 89 ALA
87 LYS 90 TYR
87 LYS 91 GLN
87 LYS 92 VAL
88 GLU 89 ALA
88 GLU 90 TYR
88 GLU 91 GLN
88 GLU 92 VAL
89 ALA 90 TYR
89 ALA 91 GLN
89 ALA 92 VAL
90 TYR 91 GLN
90 TYR 92 VAL
91 GLN 92 VAL
91 GLN 93 GLN
92 VAL 93 GLN
92 VAL 94 LEU
92 VAL 110 PHE
93 GLN 94 LEU
93 GLN 95 ALA
93 GLN 110 PHE
93 GLN 111 GLU
93 GLN 112 ILE
93 GLN 113 LEU
93 GLN 120 GLY
94 LEU 95 ALA
94 LEU 96 THR
94 LEU 106 TYR
94 LEU 110 PHE
94 LEU 111 GLU
94 LEU 112 ILE
94 LEU 120 GLY
95 ALA 96 THR
95 ALA 97 GLU
95 ALA 98 GLU
95 ALA 112 ILE
95 ALA 113 LEU
95 ALA 120 GLY
95 ALA 121 ILE
96 THR 97 GLU
96 THR 98 GLU
96 THR 99 THR
96 THR 102 ASN
96 THR 103 VAL
96 THR 106 TYR
96 THR 112 ILE
97 GLU 98 GLU
97 GLU 99 THR
97 GLU 100 GLU
97 GLU 101 LYS
97 GLU 102 ASN
97 GLU 103 VAL
98 GLU 99 THR
98 GLU 100 GLU
98 GLU 101 LYS
98 GLU 102 ASN
98 GLU 103 VAL
98 GLU 104 GLY
98 GLU 112 ILE
99 THR 100 GLU
99 THR 101 LYS
99 THR 102 ASN
99 THR 103 VAL
99 THR 104 GLY
99 THR 105 PHE
100 GLU 101 LYS
100 GLU 102 ASN
100 GLU 103 VAL
100 GLU 104 GLY
100 GLU 105 PHE
101 LYS 102 ASN
101 LYS 103 VAL
101 LYS 104 GLY
101 LYS 105 PHE
101 LYS 106 TYR
101 LYS 107 ARG
102 ASN 103 VAL
102 ASN 104 GLY
102 ASN 105 PHE
102 ASN 106 TYR
102 ASN 107 ARG
102 ASN 108 SER
103 VAL 104 GLY
103 VAL 105 PHE
103 VAL 106 TYR
103 VAL 107 ARG
103 VAL 108 SER
103 VAL 110 PHE
103 VAL 111 GLU
103 VAL 112 ILE
104 GLY 105 PHE
104 GLY 106 TYR
104 GLY 107 ARG
104 GLY 108 SER
104 GLY 110 PHE
104 GLY 111 GLU
105 PHE 106 TYR
105 PHE 107 ARG
105 PHE 108 SER
105 PHE 109 GLY
105 PHE 110 PHE
106 TYR 107 ARG
106 TYR 108 SER
106 TYR 109 GLY
106 TYR 110 PHE
106 TYR 111 GLU
106 TYR 112 ILE
107 ARG 108 SER
107 ARG 109 GLY
107 ARG 110 PHE
107 ARG 111 GLU
107 ARG 112 ILE
108 SER 109 GLY
108 SER 110 PHE
108 SER 111 GLU
109 GLY 110 PHE
109 GLY 111 GLU
110 PHE 111 GLU
110 PHE 112 ILE
110 PHE 113 LEU
111 GLU 112 ILE
111 GLU 113 LEU
111 GLU 114 SER
111 GLU 115 THR
111 GLU 116 TYR
112 ILE 113 LEU
112 ILE 114 SER
112 ILE 115 THR
112 ILE 116 TYR
112 ILE 117 ASP
112 ILE 118 CYS
112 ILE 119 THR
112 ILE 120 GLY
113 LEU 114 SER
113 LEU 115 THR
113 LEU 116 TYR
113 LEU 117 ASP
113 LEU 118 CYS
113 LEU 119 THR
113 LEU 120 GLY
114 SER 115 THR
114 SER 116 TYR
114 SER 117 ASP
114 SER 118 CYS
114 SER 119 THR
114 SER 120 GLY
115 THR 116 TYR
115 THR 117 ASP
115 THR 118 CYS
115 THR 119 THR
116 TYR 117 ASP
116 TYR 118 CYS
116 TYR 119 THR
117 ASP 118 CYS
117 ASP 119 THR
118 CYS 119 THR
118 CYS 120 GLY
119 THR 120 GLY
120 GLY 121 ILE
121 ILE 122 TRP
121 ILE 123 ILE
121 ILE 124 ASN
122 TRP 123 ILE
122 TRP 124 ASN
122 TRP 125 ARG
123 ILE 124 ASN
123 ILE 125 ARG
123 ILE 126 GLU
124 ASN 125 ARG
124 ASN 126 GLU
125 ARG 126 GLU